q_1 [rad],q_2 [rad],q_3 [rad],q_4 [rad],q_5 [rad],q_6 [rad]
1.28065854810528,1.30824512275103,-1.5905454607552,-1.2115002900068,-1.67855276791789,0.941451239972996
1.28585445987694,1.29429924613158,-1.57924326651596,-1.20736114924942,-1.69667037794766,0.956316192482356
1.29114086184729,1.27999988955359,-1.56747753948043,-1.20320869276074,-1.71517973075983,0.971310909163391
1.29653573581878,1.26527854132156,-1.55514478977709,-1.19906387265833,-1.73407460502377,0.986321665597535
1.30207866643834,1.25004355670361,-1.54216814266159,-1.19493293657312,-1.753327257782,1.00121914140737
1.30782512926639,1.23418767263082,-1.5284939783186,-1.19080964442672,-1.77289423677505,1.01586555234597
1.3138407788458,1.21759552239671,-1.51408857166357,-1.18667748520881,-1.79272219276639,1.03012178238627
1.32019573677092,1.2001511503566,-1.49893473214455,-1.18251189375442,-1.8127536918672,1.04385451581042
1.32695887975656,1.18174552662705,-1.48302844354398,-1.17828246752132,-1.83293302786135,1.05694336929913
1.33419212770696,1.16228406178525,-1.46637550378049,-1.17395518336735,-1.8532120345302,1.06928802402105
1.34194473178485,1.14169412156847,-1.44898816471072,-1.16949461432774,-1.87355589797751,1.08081535772209
1.35024756248005,1.11993254157369,-1.43088177193074,-1.16486614639251,-1.89394896895436,1.09148657681441
1.35910747641795,1.09699303504618,-1.41207144467187,-1.16003817577498,-1.91440048381661,1.10130423720089
1.36850373035606,1.0729108210171,-1.39256979810089,-1.15498379895395,-1.93494790993686,1.11031637216795
1.37838959190061,1.04776019639421,-1.37238731173601,-1.14968121514045,-1.95565426088321,1.11861327669666
1.38869599741284,1.02164932840022,-1.35153374026907,-1.14411362151801,-1.97660303605225,1.12632139884404
1.39933528865383,0.994714940101235,-1.3300195644806,-1.13826908897421,-1.99789306893477,1.13359711985842
1.41020494942928,0.967116995935001,-1.30785744215496,-1.13214043783219,-2.01963337538151,1.14062053429476
1.42119134223432,0.939033387239321,-1.28506365899543,-1.12572511358219,-2.04193800186887,1.14758923012998
1.4321734448983,0.910654617780385,-1.26165957953929,-1.1190250626131,-2.06492087376468,1.15471206887822
1.44302658722958,0.88217848928112,-1.23767309807298,-1.112046607944,-2.08869064359392,1.16220296570624
1.45362618766035,0.853804786949543,-1.21314008954715,-1.10480032495565,-2.11334553930443,1.17027466954869
1.46385148989093,0.825729965007868,-1.1881058604918,-1.09730091712218,-2.13896821253339,1.17913254322548
1.47358927514692,0.798141863927256,-1.16262656897438,-1.08956708291853,-2.16562062611562,1.18896838714082
1.48273694030274,0.771215252116348,-1.13676983967522,-1.08162115331463,-2.19333996198161,1.19995539639353
1.49120396629835,0.745109460426708,-1.11061333579955,-1.07348814690889,-2.22213711924962,1.21224599493517
1.4989127524248,0.719966841108237,-1.08424252610683,-1.06519459564772,-2.25199623270395,1.22597080312911
1.50579942622064,0.695911258473283,-1.05774842098315,-1.05676736172149,-2.28287423051788,1.24123764889955
1.51181465336832,0.67304657956074,-1.03122530851355,-1.04823245446035,-2.3147003919767,1.25813057888051
1.51692444759071,0.651455164800146,-1.00476849055436,-1.03961384723015,-2.34737590520064,1.27670886956484
1.52111098054742,0.631196358675789,-0.978472018805587,-1.03093229432823,-2.38077342486783,1.29700603845319
1.52437339173131,0.612304980390807,-0.952426430883231,-1.02220414787939,-2.41473662993734,1.31902885520297
1.52672859836489,0.594789814531288,-0.926716486391654,-1.01344017473169,-2.44907978137208,1.34275635277741
1.52821210529774,0.578632101731111,-0.901418902996205,-1.00464437335303,-2.48358727986374,1.36813883859578
1.52887877818147,0.56378408609379,-0.876600122216696,-0.995812820743076,-2.51801328390706,1.39509692521199
1.52880266199492,0.550169038399279,-0.852314848000781,-0.986933299839711,-2.55208289722401,1.42352106890753
1.52807437619472,0.537685025508237,-0.828606546960089,-0.977986908157146,-2.5854973398561,1.45327239756071
1.52679755521122,0.52621015554759,-0.805508721384894,-0.968950446915098,-2.61794068859688,1.48418404642385
1.5250852522259,0.515607879856031,-0.783046211980718,-0.959798840186126,-2.64908667778168,1.51606251343396
1.52305634294873,0.50573229492956,-0.761236500604962,-0.950507554042936,-2.67860550007722,1.54868901452331
1.52083192939558,0.49643344436689,-0.740091013003505,-0.941055015705679,-2.70617060727122,1.58182083893014
1.51853174366556,0.487562620815073,-0.719616421547334,-0.931425032689283,-2.73146551106214,1.61519270450922
1.51627055171847,0.478977667914943,-0.699815947969144,-0.921609211950765,-2.75419058384873,1.64851811304255
1.51415455715217,0.470548282246614,-0.680690666099962,-0.911609379036511,-2.77406985951973,1.68149070554993
1.51227780497748,0.462161315275686,-0.662240804605987,-0.90143999722995,-2.79085783424004,1.71378561759993
1.5107186298667,0.453726010415245,-0.644467040373121,-0.891130543443921,-2.80434620107664,1.74506089701359
1.50953726037146,0.445177553194835,-0.627371548761902,-0.880726759520986,-2.81436886397398,1.77496054381606
1.50877635761094,0.436476339292206,-0.610958436679897,-0.870289048788862,-2.82080258404548,1.80312166819436
1.5084627099416,0.42760555566856,-0.595233932523386,-0.85988974802228,-2.82356590523201,1.82918327070206
1.50860897209085,0.418568696822323,-0.580206566767624,-0.849610356150716,-2.82261801378616,1.85279508485726
1.50921540429053,0.409387081043082,-0.565887352557115,-0.839538762966356,-2.81795759775645,1.87362641974089
1.51027161141052,0.400097366665364,-0.552289966295874,-0.829766477831807,-2.8096217064716,1.89137500259535
1.51175828209226,0.390749068322407,-0.539430928237698,-0.82038585838793,-2.79768461002488,1.90577582142252
1.51364892788235,0.381402073200029,-0.527329783076433,-0.811487339261767,-2.78225665875812,1.91660996758202
1.51591162236612,0.372124157290472,-0.516009280536238,-0.803156660774171,-2.76348314274627,1.92371347838989
1.51851074031198,0.36298850164783,-0.505495555967194,-0.795472097652105,-2.74154315130008,1.9269861797226
1.52140868553095,0.35407121373207,-0.495818290717359,-0.788501713080645,-2.71664838828832,1.92640035547473
1.52456732683958,0.345448981285536,-0.487010347435692,-0.782301272188485,-2.68904084135528,1.9220049160549
1.52794869267472,0.337197062579797,-0.479106072320377,-0.776913829330946,-2.65898754114434,1.91391814114729
1.53151537375741,0.329387409186921,-0.472139072271574,-0.772369974785063,-2.6267741743234,1.90231592148035
1.53523091451535,0.322086793845486,-0.466139971841571,-0.768688106801797,-2.5926986525044,1.88741982747348
1.5390602045053,0.315354938327125,-0.461134170185431,-0.765874703658103,-2.55706468116284,1.86948517788448
1.5429698698355,0.309242641302475,-0.45713959801099,-0.763924595709209,-2.52017532855689,1.84878910845458
1.54692866458808,0.303789906207754,-0.454164474529662,-0.762821237440672,-2.4823265946473,1.82561864055697
1.55090786224148,0.299024069110843,-0.45220506440657,-0.762536979520569,-2.44380098001662,1.80025874984238
1.55488164709289,0.294957926577489,-0.451243434710818,-0.763033340851734,-2.40486105478851,1.77298043488582
1.55882750565496,0.291587863531703,-0.451245211855877,-0.764261280612388,-2.36574302749631,1.7440287858073
1.56272660965434,0.288892026624467,-0.452157388301174,-0.76616148600759,-2.32665041178331,1.71361122318586
1.56656397711286,0.286829679991371,-0.453907421632238,-0.768665066916526,-2.28775022966613,1.6818901609895
1.57032807099218,0.28534356266627,-0.456405614649725,-0.771695283824457,-2.24917565553307,1.64898690059567
1.57401017604946,0.284363428414451,-0.459548787887854,-0.775169682707201,-2.21103119695834,1.61498994896328
1.577603767192,0.283809631050048,-0.463224001854712,-0.779002245581353,-2.17339797314725,1.57996350698761
1.58110387783205,0.283596709752999,-0.467312279270487,-0.783105541053516,-2.1363389933785,1.54395595786082
1.58450646824163,0.28363697438607,-0.471692327307181,-0.787392874870591,-2.09990443544808,1.50700835542682
1.58780779390702,0.283844090813034,-0.476244259827979,-0.791780440469381,-2.06413692411371,1.46916291254104
1.59100377388378,0.284136666215375,-0.480853319626931,-0.796189469526155,-2.02907680953672,1.43047148942708
1.59408935915127,0.284441834409392,-0.485413600667414,-0.800548382506804,-1.99476744572758,1.39100408203547
1.59705790096754,0.2846988411643,-0.489831770322041,-0.804794939216578,-1.96126046898826,1.35085731039965
1.59990053220854,0.284862577089996,-0.494030743718952,-0.808878357964517,-1.92862099893176,1.31016278723484
1.60260588708266,0.284905747397033,-0.497952113185875,-0.812760619332153,-1.89693082628565,1.26909237210407
1.60516067923309,0.284817581392247,-0.501555417322919,-0.816415699643414,-1.86628649035418,1.22785552018445
1.60755061833704,0.284601178849982,-0.504816165228419,-0.819827989136058,-1.83679534324,1.18669351651431
1.60976133959232,0.284270803950164,-0.507723812785116,-0.822990678668077,-1.80857153666034,1.14587359054781
1.6117793332287,0.283849179217725,-0.510279738961572,-0.825904146446618,-1.78173200875869,1.1056830306959
1.6135928740178,0.283364779462886,-0.512495222110942,-0.828574344754827,-1.75639247091885,1.06642329886449
1.61519295078453,0.282849125720759,-0.514389416269751,-0.831011186679262,-1.73266339457371,1.02840414499508
1.61657419591816,0.282334079190093,-0.515987327457651,-0.833226932837306,-1.71064599802048,0.991937721601062
1.61773581488256,0.281849135174014,-0.517317789977142,-0.835234578104917,-1.69042823323014,0.957332698312143
1.61868251569678,0.281418717005238,-0.518411442695713,-0.837046238363712,-1.67208077264337,0.924888376377567
1.61942541568345,0.281059508826615,-0.519298722426926,-0.838671562410411,-1.65565301043961,0.89488871919275
1.61998235290844,0.280778796708489,-0.520008299543752,-0.840116800823409,-1.64116943775059,0.867594194971389
1.62037668753123,0.280575369857445,-0.520566636766354,-0.841385541805664,-1.62862696771833,0.843228066713891
1.62063550800144,0.280441430232088,-0.520997990265533,-0.842480103885975,-1.61799263458136,0.82196049446793
1.62078781439959,0.280364540954167,-0.521324427797685,-0.843402953862267,-1.60920130716914,0.803892553491096
1.62086270177804,0.280329574724476,-0.521565846839863,-0.844158124743331,-1.60215340239426,0.78904025241718
1.62088754350225,0.280320662237386,-0.521739992724868,-0.844752633692337,-1.59671259874665,0.77731855139973
1.62088617459165,0.280323140593225,-0.521862476776221,-0.845197899968298,-1.59270354978639,0.768525380291976
1.62087707506089,0.280325501713378,-0.521946794443281,-0.84551116287048,-1.5899095976369,0.762325656788107
1.62087155326145,0.280321340753289,-0.522004343436269,-0.845716899678848,-1.58807048647822,0.758235304595473
1.62087192922252,0.280311304517909,-0.522044441861262,-0.845848243598368,-1.58688007604064,0.755605271591776
